#Procedure: <__main__.daedalusRadialPoloarCalibrationProcedure>
#Parameters:
#	Calibration Name: neg_5v
#	Center Calibration File: ./proj_field_center_calib_icarus.csv
#	Azimuthal Angle: 0 deg
#	Magnet Voltage: -5 V
#	Queued Time: 2019-06-03 18:00:00
#	Start Y position: 0 mm
#	Y position step: 0.1 mm
#	Stop Y position: 15 mm
#Data:
R,Xfield,Yfield,Zfield,elapsed_time
0.0,0.0037543884277343753,-0.23868604125976567,-0.00093851318359375,0.5400004386901855
0.1,0.0039158447265625,-0.23867025756835938,-0.0037408508300781247,1.7400023937225342
0.2,0.004099334716796875,-0.23867144775390625,-0.006861865234375,2.958021879196167
0.30000000000000004,0.0042411865234375,-0.23865584106445314,-0.010066723632812502,4.2160937786102295
0.4,0.004405029296875001,-0.23855779418945314,-0.013363507080078125,5.472165584564209
0.5,0.004568853759765626,-0.23844801635742185,-0.016674945068359377,6.737237930297852
0.6000000000000001,0.004724102783203125,-0.23826524658203124,-0.019997821044921878,8.004310369491577
0.7000000000000001,0.0048982421875000005,-0.23813379516601563,-0.023191345214843753,9.272382974624634
0.8,0.0050699951171875,-0.23788721313476563,-0.02640164184570313,10.53245496749878
0.9,0.0052643737792968754,-0.23757578735351564,-0.0296426513671875,11.795527219772339
1.0,0.005435443115234376,-0.23734343872070315,-0.0329296142578125,13.053599119186401
1.1,0.00557781982421875,-0.23702828979492185,-0.036300054931640624,14.313671112060547
1.2000000000000002,0.005738140869140625,-0.23655886230468748,-0.0396635498046875,15.573743343353271
1.3,0.005896832275390625,-0.23609673461914063,-0.04308404541015626,16.778812408447266
1.4000000000000001,0.0061124145507812505,-0.23558017578125,-0.046581072998046875,18.039884328842163
1.5,0.0062614013671875,-0.23501757812500002,-0.04993655395507812,19.255953788757324
1.6,0.0064217407226562495,-0.23440799560546877,-0.053290435791015625,20.464023113250732
1.7000000000000002,0.006548358154296875,-0.23379046020507813,-0.05671053466796875,21.67209219932556
1.8,0.0067191162109375,-0.23304558105468753,-0.06011378784179688,22.938164472579956
1.9000000000000001,0.0068903564453125,-0.23227586059570313,-0.06361280517578126,24.160234451293945
2.0,0.007084411621093751,-0.23136182861328125,-0.06715958251953125,25.381304264068604
2.1,0.007242333984375001,-0.23041228637695316,-0.07073070678710938,26.60837459564209
2.2,0.007395861816406251,-0.22936994628906252,-0.07434505004882812,27.841445207595825
2.3000000000000003,0.007589208984375,-0.228265576171875,-0.07786871337890626,29.078515768051147
2.4000000000000004,0.00774608154296875,-0.22710831298828127,-0.08134172973632814,30.297585487365723
2.5,0.00789615478515625,-0.22585349121093753,-0.08479508056640625,31.508654832839966
2.6,0.0080672119140625,-0.2245146179199219,-0.08832265625,32.76772689819336
2.7,0.008226245117187501,-0.22300689697265624,-0.09188917236328126,34.01679825782776
2.8000000000000003,0.008401483154296875,-0.22143248291015627,-0.09549774169921876,35.223867416381836
2.9000000000000004,0.008563970947265626,-0.21974152221679688,-0.09915487670898437,36.485939502716064
3.0,0.008705535888671876,-0.2180020446777344,-0.10270858764648438,37.74401140213013
3.1,0.008843109130859375,-0.2161004638671875,-0.10616659545898438,39.00708365440369
3.2,0.008996771240234375,-0.2141600830078125,-0.10958789672851564,40.263155460357666
3.3000000000000003,0.00915543212890625,-0.21211162719726562,-0.11297459716796876,41.525227785110474
3.4000000000000004,0.009314495849609375,-0.20995947265625003,-0.11637575073242189,42.7872998714447
3.5,0.009506323242187502,-0.2076448181152344,-0.11972578735351563,44.04337167739868
3.6,0.009626812744140626,-0.20517642211914067,-0.12312097778320313,45.246440410614014
3.7,0.009734222412109375,-0.20260061645507813,-0.12646420898437502,46.51451301574707
3.8000000000000003,0.009891943359375,-0.19987692260742188,-0.1297315185546875,47.7765851020813
3.9000000000000004,0.0099882080078125,-0.19715684204101563,-0.132776171875,49.03565716743469
4.0,0.0100753662109375,-0.19433008422851564,-0.13572916259765627,50.2907292842865
4.1000000000000005,0.010209014892578125,-0.19142196655273438,-0.13856248168945315,51.54880094528198
4.2,0.010308605957031251,-0.18838251342773438,-0.14138321533203124,52.806873083114624
4.3,0.010414697265625002,-0.18528367309570315,-0.14408813476562501,54.069945096969604
4.4,0.010511553955078126,-0.18199060668945313,-0.14672000122070314,55.33501744270325
4.5,0.010590155029296874,-0.17860613403320313,-0.14925457763671876,56.603090047836304
4.6000000000000005,0.010668475341796876,-0.17517542724609375,-0.1515600036621094,57.854161739349365
4.7,0.010712738037109376,-0.17176895751953125,-0.1537670104980469,59.05423021316528
4.800000000000001,0.010799420166015625,-0.16834656982421875,-0.15577545776367188,60.2592990398407
4.9,0.010848937988281251,-0.16486567993164064,-0.15772049560546875,61.526371479034424
5.0,0.010867590332031251,-0.16131917114257813,-0.15955069580078127,62.737441062927246
5.1000000000000005,0.01090736083984375,-0.15777058105468753,-0.16113050537109375,63.94351005554199
5.2,0.0109640869140625,-0.1541170654296875,-0.16268604736328127,65.14457845687866
5.300000000000001,0.0109447509765625,-0.15043224487304688,-0.16409900512695313,66.40565061569214
5.4,0.010954498291015627,-0.14677442626953127,-0.16530144653320314,67.60871958732605
5.5,0.01097860107421875,-0.14325684814453127,-0.1663814392089844,68.81878876686096
5.6000000000000005,0.010948516845703126,-0.13977140502929689,-0.16732149047851563,70.0468590259552
5.7,0.010970397949218752,-0.1362719970703125,-0.16819170532226563,71.27992963790894
5.800000000000001,0.010956927490234376,-0.13280975341796875,-0.16887025146484377,72.5160002708435
5.9,0.010932440185546876,-0.1293671203613281,-0.16945447998046875,73.7450704574585
6.0,0.010962835693359376,-0.125918212890625,-0.16993721313476562,74.97614097595215
6.1000000000000005,0.010881768798828125,-0.12248394775390625,-0.17034249267578128,76.23221278190613
6.2,0.010852532958984376,-0.11914832763671875,-0.17060457763671877,77.50128531455994
6.300000000000001,0.0108338134765625,-0.11593121337890624,-0.1708122741699219,78.75335693359375
6.4,0.0107893310546875,-0.11292100219726563,-0.17091075439453127,79.9594259262085
6.5,0.01071573486328125,-0.109825634765625,-0.1708705505371094,81.22149801254272
6.6000000000000005,0.010670159912109376,-0.10686952514648439,-0.17079812622070312,82.48157024383545
6.7,0.010628973388671876,-0.10391661987304689,-0.1706338073730469,83.74064230918884
6.800000000000001,0.010539178466796875,-0.10102840576171875,-0.1704181091308594,84.99371385574341
6.9,0.010495208740234376,-0.0981711181640625,-0.1702060791015625,86.24478530883789
7.0,0.010448907470703126,-0.0954108642578125,-0.1698650390625,87.50885772705078
7.1000000000000005,0.010405108642578126,-0.09279464721679688,-0.16950538940429688,88.77293014526367
7.2,0.01037523193359375,-0.09024521484375,-0.16907138061523438,90.04400277137756
7.300000000000001,0.010256823730468751,-0.08779585571289063,-0.16861018676757814,91.30407500267029
7.4,0.010245391845703125,-0.08541543579101563,-0.16817655639648438,92.57214736938477
7.5,0.010169683837890625,-0.08299937744140626,-0.16762821044921875,93.83221936225891
7.6000000000000005,0.01012724609375,-0.08067094726562501,-0.16705514526367188,95.04028844833374
7.7,0.010061529541015626,-0.07840664062500001,-0.1664975036621094,96.29436039924622
7.800000000000001,0.00997069091796875,-0.0762444580078125,-0.16591493530273438,97.4984290599823
7.9,0.009913885498046875,-0.07417445068359375,-0.1652878112792969,98.70849847793579
8.0,0.009798645019531252,-0.07219207153320313,-0.16471161499023437,99.91156697273254
8.1,0.009783819580078125,-0.07023093872070313,-0.16407171020507813,101.17163920402527
8.200000000000001,0.009734820556640626,-0.06830571899414063,-0.1634489196777344,102.4267110824585
8.3,0.009666986083984376,-0.06642671508789062,-0.16282708740234375,103.68878316879272
8.4,0.009563836669921876,-0.06463532104492188,-0.16219822998046876,104.9548556804657
8.5,0.009514837646484376,-0.06286331176757813,-0.1615047607421875,106.15792465209961
8.6,0.009444891357421875,-0.06110328369140625,-0.16084788818359375,107.37299394607544
8.700000000000001,0.009394012451171876,-0.059493902587890626,-0.16021209106445314,108.58706331253052
8.8,0.00931612548828125,-0.057880847167968756,-0.15956305541992188,109.79713249206543
8.9,0.009271209716796874,-0.05634913940429688,-0.15886622314453125,111.00820207595825
9.0,0.009225433349609374,-0.054836932373046876,-0.15827540283203126,112.22727155685425
9.1,0.009200036621093751,-0.05341225585937501,-0.15765379638671875,113.4483413696289
9.200000000000001,0.00911270751953125,-0.05194205932617188,-0.15696292114257815,114.67741179466248
9.3,0.0090369384765625,-0.05054799194335938,-0.15630718994140624,115.91248226165771
9.4,0.008984722900390625,-0.0491391845703125,-0.15568663330078125,117.14855313301086
9.5,0.008939392089843751,-0.04782009887695313,-0.15503812255859376,118.37462329864502
9.600000000000001,0.008897509765625,-0.04655822143554688,-0.1544615173339844,119.58769249916077
9.700000000000001,0.008832293701171876,-0.04530452270507813,-0.15387486572265627,120.84976482391357
9.8,0.008809057617187501,-0.04412899780273438,-0.15332098999023439,122.11083698272705
9.9,0.00875740966796875,-0.042936328125000006,-0.15272430419921876,123.36990904808044
10.0,0.008740863037109376,-0.041700030517578125,-0.15215073242187502,124.63098120689392
10.100000000000001,0.0086644287109375,-0.04056754760742188,-0.15160009765625002,125.89305305480957
10.200000000000001,0.008607513427734376,-0.03943251342773438,-0.15102298583984375,127.1531252861023
10.3,0.00856712646484375,-0.038356591796875006,-0.15051875,128.4121973514557
10.4,0.008549615478515625,-0.03731643676757813,-0.1500673095703125,129.61326599121094
10.5,0.008472949218750001,-0.036285101318359374,-0.14951602783203125,130.86833786964417
10.600000000000001,0.008428131103515625,-0.0352938232421875,-0.14906162719726565,132.1404106616974
10.700000000000001,0.008394219970703125,-0.03429002685546875,-0.14856993408203126,133.3424792289734
10.8,0.008375909423828124,-0.03329256591796875,-0.14812078857421876,134.60555148124695
10.9,0.008354046630859376,-0.03233659057617188,-0.14766586303710938,135.86162328720093
11.0,0.008296875,-0.031384375,-0.1471693359375,137.12069535255432
11.100000000000001,0.008263482666015625,-0.030452166748046877,-0.14679335937500002,138.36676669120789
11.200000000000001,0.008233154296875001,-0.029551446533203126,-0.14637322387695315,139.62783861160278
11.3,0.008190234375,-0.02864287109375,-0.14598687133789065,140.83290767669678
11.4,0.008162945556640626,-0.027798468017578126,-0.14563757324218748,142.09597992897034
11.5,0.00813712158203125,-0.026911694335937503,-0.14524775390625,143.36805272102356
11.600000000000001,0.008084216308593751,-0.026010638427734375,-0.1448642822265625,144.63512516021729
11.700000000000001,0.008036035156250001,-0.025164483642578124,-0.1445171630859375,145.83919405937195
11.8,0.008023944091796876,-0.024338629150390628,-0.14421862182617187,147.10326623916626
11.9,0.007992340087890624,-0.023530371093750002,-0.14389501953125,148.35833835601807
12.0,0.0079555908203125,-0.0227546630859375,-0.14364232788085937,149.56240725517273
12.100000000000001,0.00792957763671875,-0.021970831298828125,-0.14335108642578126,150.76647567749023
12.200000000000001,0.007859332275390625,-0.021147186279296876,-0.14308387451171875,151.97754526138306
12.3,0.007898748779296876,-0.020337042236328127,-0.14279869384765626,153.17961382865906
12.4,0.007848529052734376,-0.019529449462890626,-0.1425470703125,154.4416859149933
12.5,0.007805432128906251,-0.018773937988281253,-0.1422945739746094,155.7067584991455
12.600000000000001,0.0077442138671874996,-0.01794405517578125,-0.14208329467773437,156.90982723236084
12.700000000000001,0.007756866455078126,-0.017201007080078125,-0.14187783203125,158.1238968372345
12.8,0.00779854736328125,-0.016438995361328125,-0.1417041259765625,159.35696721076965
12.9,0.007742388916015625,-0.015631951904296875,-0.141532080078125,160.59903812408447
13.0,0.0077480224609375,-0.014886669921875002,-0.14139118041992188,161.83810925483704
13.100000000000001,0.0077256896972656254,-0.014107897949218752,-0.14121131591796876,163.08018016815186
13.200000000000001,0.007676562500000001,-0.013354199218750001,-0.14103536987304688,164.2942497730255
13.3,0.00768763427734375,-0.012578399658203124,-0.14096461791992188,165.51131916046143
13.4,0.007690118408203126,-0.011805670166015626,-0.14083782348632812,166.7823920249939
13.5,0.007626483154296875,-0.011078717041015625,-0.14075681152343753,167.9944610595703
13.600000000000001,0.0076300354003906255,-0.010324328613281251,-0.1406463623046875,169.19853019714355
13.700000000000001,0.0076268737792968755,-0.009520367431640626,-0.14055637817382813,170.4586021900177
13.8,0.00758052978515625,-0.008779571533203126,-0.14048632202148437,171.71367406845093
13.9,0.007595153808593751,-0.007981121826171875,-0.140464208984375,172.98274660110474
14.0,0.0075181396484375,-0.0071978271484375,-0.14043088989257813,174.24781894683838
14.100000000000001,0.0075573974609375,-0.00638646240234375,-0.1403999755859375,175.50389075279236
14.200000000000001,0.007521942138671875,-0.005588635253906251,-0.1403724365234375,176.77096319198608
14.3,0.007493164062500001,-0.0047975463867187505,-0.14038524169921876,178.0310354232788
14.4,0.007521722412109375,-0.003968145751953125,-0.1403692321777344,179.29610776901245
14.5,0.0075077819824218755,-0.003191259765625,-0.14038363037109378,180.56017994880676
14.600000000000001,0.0075071044921875,-0.00234593505859375,-0.14047875366210938,181.82325220108032
14.700000000000001,0.007539324951171875,-0.00148873291015625,-0.14051298828125,183.0873246192932
14.8,0.007513006591796875,-0.000628350830078125,-0.14052637329101564,184.3503966331482
14.9,0.00750318603515625,0.00024938354492187503,-0.14060352172851562,185.55646586418152
15.0,0.007543151855468749,0.0011875793457031252,-0.1406977600097656,186.81453776359558
