#Procedure: <__main__.daedalusVoltCenterCalibrationProcedure>
#Parameters:
#	Calibration Name: phi90_fine
#	Center Calibration File: ./proj_field_center_calib_icarus.csv
#	Magnet Azimuthal Angle: 90 deg
#	Queued Time: 2019-06-03 16:06:58
#	Start magnet voltage: -10 V
#	Magnet voltage step: 0.02 V
#	Stop magnet voltage: 10 V
#Data:
V,Xfield,Yfield,Zfield,elapsed_time
-9.99603271484375,-0.3466815246582031,-0.00455255126953125,0.003959051513671875,10.380014419555664
-9.976806640625,-0.34633759765625,-0.004546307373046875,0.003933465576171875,10.73001480102539
-9.95635986328125,-0.34599168090820315,-0.004527307128906251,0.00395634765625,11.090015411376953
-9.9359130859375,-0.3456873779296875,-0.004573651123046875,0.0039431335449218756,11.450016021728516
-9.91851806640625,-0.34535564575195316,-0.0045484375,0.00391741943359375,11.800016403198242
-9.896240234375,-0.3450146484375,-0.00455716552734375,0.003955413818359375,12.170017004013062
-9.87884521484375,-0.3446868103027344,-0.004529504394531251,0.003926422119140625,12.530017375946045
-9.85595703125,-0.34434992065429687,-0.004537078857421876,0.003899835205078125,12.900017738342285
-9.837646484375,-0.34399429931640624,-0.00455213623046875,0.0039461608886718754,13.260018348693848
-9.8162841796875,-0.34368075561523437,-0.004518768310546875,0.003906976318359376,13.610018968582153
-9.796142578125,-0.34333271484375,-0.00451693115234375,0.0039048645019531254,13.980019330978394
-9.7772216796875,-0.34302612915039066,-0.004491827392578126,0.003891143798828125,14.340019941329956
-9.75677490234375,-0.34272410278320314,-0.004509674072265625,0.0038909423828125,14.710020303726196
-9.73724365234375,-0.3423612731933594,-0.0045057373046875,0.003871636962890625,15.060020923614502
-9.716796875,-0.34201373901367194,-0.004486822509765625,0.0038617919921875004,15.420021533966064
-9.700927734375,-0.34167171020507814,-0.0044786804199218756,0.00385047607421875,15.780021905899048
-9.67681884765625,-0.34136336059570316,-0.004484228515625,0.0038889526367187504,16.130022287368774
-9.6563720703125,-0.34103525390625,-0.004477587890625,0.00386634521484375,16.490022897720337
-9.64111328125,-0.34071357421875004,-0.004477520751953125,0.00389249267578125,16.85002326965332
-9.61639404296875,-0.340352978515625,-0.0044599853515625,0.0038949096679687504,17.210023880004883
-9.59625244140625,-0.3400132202148438,-0.00447554931640625,0.003869598388671875,17.56002449989319
-9.576416015625,-0.33966541137695316,-0.004460028076171875,0.0038747802734375005,17.952042818069458
-9.5562744140625,-0.3393196960449219,-0.00445125732421875,0.0038566772460937506,18.326064348220825
-9.5379638671875,-0.3390038330078125,-0.004483959960937501,0.0038648010253906247,18.688084840774536
-9.5166015625,-0.33866463012695314,-0.00445391845703125,0.0038593444824218757,19.051105737686157
-9.4964599609375,-0.3382806091308594,-0.004460662841796875,0.0038687500000000002,19.41512680053711
-9.4769287109375,-0.33795194091796876,-0.004440032958984375,0.0038715515136718754,19.780147314071655
-9.4573974609375,-0.3375965881347656,-0.004432122802734375,0.0038410705566406253,20.148168563842773
-9.43603515625,-0.3372598754882813,-0.00442481689453125,0.003816107177734375,20.518189668655396
-9.417724609375,-0.3369341918945313,-0.004411737060546875,0.003817510986328125,20.892211198806763
-9.39910888671875,-0.3365931640625,-0.004411718750000001,0.003849444580078125,21.25823187828064
-9.376220703125,-0.3362026489257813,-0.0044272033691406245,0.0038212036132812504,21.62625288963318
-9.3560791015625,-0.3358968444824219,-0.004445556640625,0.003817437744140625,21.993273973464966
-9.3359375,-0.3355458618164063,-0.004424603271484375,0.0038149230957031256,22.35229468345642
-9.31732177734375,-0.3352379638671875,-0.0044012329101562496,0.0038006652832031254,22.712315320968628
-9.29779052734375,-0.33483253173828126,-0.0043997680664062495,0.003806488037109375,23.080336332321167
-9.276123046875,-0.33453968505859377,-0.0043473083496093756,0.00378233642578125,23.446357250213623
-9.25628662109375,-0.33419102172851567,-0.004358941650390625,0.0038070861816406256,23.81337833404541
-9.23797607421875,-0.33380252685546874,-0.00437100830078125,0.00377523193359375,24.18139910697937
-9.22119140625,-0.3334258483886719,-0.004382952880859375,0.003802001953125,24.548420190811157
-9.1973876953125,-0.3330882446289063,-0.0043841979980468754,0.003801824951171875,24.91344118118286
-9.1766357421875,-0.33270916748046875,-0.0043713928222656245,0.0037760742187500002,25.283462285995483
-9.15679931640625,-0.3323535278320313,-0.004348211669921875,0.003818408203125,25.647483110427856
-9.13665771484375,-0.33203040161132813,-0.00435447998046875,0.0037613769531250002,26.01250410079956
-9.11865234375,-0.33164251708984377,-0.004351025390625,0.0037705871582031252,26.375524759292603
-9.09637451171875,-0.33130966796875,-0.0043460693359375,0.003803814697265625,26.745545864105225
-9.07623291015625,-0.33095159301757815,-0.0043369140625,0.003772857666015625,27.114567041397095
-9.05670166015625,-0.33062844848632816,-0.004314312744140625,0.0037859680175781254,27.482588052749634
-9.03656005859375,-0.33027325439453126,-0.004347161865234375,0.00375616455078125,27.853609323501587
-9.0185546875,-0.32993477172851565,-0.004346429443359375,0.00376663818359375,28.226630687713623
-8.997802734375,-0.3295492126464844,-0.004329522705078126,0.0037120056152343747,28.60065197944641
-8.97674560546875,-0.3291727172851563,-0.0043341552734375,0.0037152954101562505,28.96867299079895
-8.95660400390625,-0.32884680175781256,-0.00435784912109375,0.00373304443359375,29.33669424057007
-8.936767578125,-0.32847927856445314,-0.0043245849609375,0.0037129882812500003,29.69971489906311
-8.91693115234375,-0.32814317016601563,-0.004294610595703126,0.0037253601074218757,30.06773591041565
-8.896484375,-0.3277548217773438,-0.00428328857421875,0.003701617431640625,30.433756828308105
-8.87908935546875,-0.32739504394531255,-0.004287658691406251,0.003715283203125,30.816778659820557
-8.856201171875,-0.32703567504882813,-0.004286676025390625,0.0037253479003906253,31.18079972267151
-8.83636474609375,-0.3266850402832031,-0.0042902099609375,0.0037189086914062503,31.547820806503296
-8.81927490234375,-0.32630391235351563,-0.0042962646484375,0.00371611328125,31.916841745376587
-8.7969970703125,-0.32593413085937506,-0.0042907470703125,0.00370595703125,32.27886247634888
-8.77655029296875,-0.3255749938964844,-0.004264166259765625,0.0036809936523437507,32.646883487701416
-8.75762939453125,-0.32517977905273443,-0.0042455078124999995,0.00370654296875,33.01790452003479
-8.73626708984375,-0.324811767578125,-0.0042717407226562495,0.00369183349609375,33.390925884246826
-8.71734619140625,-0.32443992309570313,-0.004258233642578125,0.0036905822753906248,33.75394678115845
-8.69781494140625,-0.32409929809570315,-0.004261041259765625,0.0036834045410156255,34.120967626571655
-8.6767578125,-0.3237192810058594,-0.004261212158203125,0.0036497497558593754,34.49398899078369
-8.65875244140625,-0.3233288024902344,-0.0042664794921875,0.0036456970214843753,34.859009981155396
-8.63677978515625,-0.32298465576171875,-0.0042462646484375,0.003644537353515625,35.221030473709106
-8.61663818359375,-0.32258848266601564,-0.004249237060546875,0.003648065185546875,35.58405137062073
-8.59649658203125,-0.32224656372070315,-0.004221600341796875,0.003608563232421875,35.9530725479126
-8.57666015625,-0.32182564697265625,-0.004226525878906251,0.00363848876953125,36.319093465805054
-8.55682373046875,-0.32144031372070314,-0.00424581298828125,0.0036370056152343747,36.69411492347717
-8.53668212890625,-0.32104714965820313,-0.004220550537109375,0.0036027587890625,37.05613565444946
-8.51654052734375,-0.3206646362304688,-0.004210821533203125,0.0036155639648437505,37.42115664482117
-8.4967041015625,-0.32032984619140625,-0.004235906982421875,0.0036055297851562505,37.79617786407471
-8.4759521484375,-0.3199198669433594,-0.00422802734375,0.0036050781249999998,38.16019892692566
-8.45703125,-0.31957039184570313,-0.004236090087890626,0.0036053771972656256,38.52421951293945
-8.44207763671875,-0.31918175659179693,-0.004185662841796875,0.003588201904296875,38.895240783691406
-8.4210205078125,-0.31881467895507815,-0.00419881591796875,0.00359571533203125,39.257261514663696
-8.4002685546875,-0.3184078918457032,-0.004227655029296875,0.0036137084960937505,39.62828278541565
-8.37677001953125,-0.3180201416015625,-0.00420496826171875,0.0036064147949218753,39.99830389022827
-8.35693359375,-0.31766346435546877,-0.0041801879882812495,0.00358890380859375,40.362324714660645
-8.33770751953125,-0.317291845703125,-0.00418935546875,0.0035976013183593755,40.72734546661377
-8.316650390625,-0.31690919189453126,-0.00416724853515625,0.003588555908203125,41.10136699676514
-8.29681396484375,-0.3164788146972657,-0.004129547119140625,0.0035812561035156254,41.47238826751709
-8.27728271484375,-0.316116015625,-0.004148248291015625,0.003570855712890625,41.84840989112854
-8.2562255859375,-0.3157531982421875,-0.0041319091796875,0.0035463928222656256,42.22443127632141
-8.2366943359375,-0.31536470947265627,-0.004130096435546875,0.00355997314453125,42.59245228767395
-8.2171630859375,-0.31497501831054686,-0.0041162109375,0.003554107666015625,42.964473485946655
-8.19732666015625,-0.3145560974121094,-0.0041331604003906255,0.0035303161621093753,43.33449459075928
-8.17626953125,-0.31417698974609376,-0.004123583984375,0.0035267944335937505,43.70051574707031
-8.15765380859375,-0.3138054748535157,-0.0041052490234375,0.0035003051757812502,44.0625364780426
-8.13720703125,-0.31341291503906255,-0.004103369140625,0.003497119140625,44.42755722999573
-8.11737060546875,-0.31297775878906253,-0.004120367431640625,0.0035141357421875,44.79657816886902
-8.09661865234375,-0.3126200378417969,-0.004094287109375,0.0035279602050781247,45.16459941864014
-8.07708740234375,-0.31222321777343753,-0.004101971435546875,0.0035230651855468753,45.531620502471924
-8.056640625,-0.31184656982421877,-0.00408751220703125,0.0035125671386718755,45.90464162826538
-8.03863525390625,-0.31147243652343753,-0.00409554443359375,0.00348809814453125,46.27066254615784
-8.01727294921875,-0.31106734008789066,-0.004048553466796875,0.0034668884277343753,46.64168381690979
-7.99713134765625,-0.31059727172851564,-0.0040627685546875,0.003493914794921875,47.01170492172241
-7.98004150390625,-0.3101863647460938,-0.004054559326171875,0.003498748779296875,47.381726026535034
-7.95928955078125,-0.3098354675292969,-0.004070135498046875,0.003486932373046875,47.750747203826904
-7.93792724609375,-0.30940087280273443,-0.004087420654296875,0.0034787902832031253,48.113768100738525
-7.91595458984375,-0.3089830078125,-0.004088714599609375,0.0034909362792968756,48.48078918457031
-7.89703369140625,-0.30859851684570316,-0.004105487060546875,0.0034778442382812497,48.84881019592285
-7.8765869140625,-0.30817939453125004,-0.004078472900390625,0.0034848388671875003,49.22083139419556
-7.85858154296875,-0.30776619262695315,-0.00402342529296875,0.0034632995605468754,49.58485221862793
-7.83599853515625,-0.3073836059570313,-0.0040304748535156245,0.003481683349609375,49.948872804641724
-7.81768798828125,-0.307014697265625,-0.00402725830078125,0.00345379638671875,50.311893701553345
-7.79815673828125,-0.30661338500976565,-0.004025164794921875,0.003452069091796875,50.67791485786438
-7.77801513671875,-0.3062463256835938,-0.00401292724609375,0.003466363525390625,51.042935371398926
-7.75665283203125,-0.3057964050292969,-0.004019586181640625,0.0034665466308593748,51.410956621170044
-7.73651123046875,-0.3054160766601563,-0.004016345214843751,0.0034355224609375,51.77597737312317
-7.71636962890625,-0.3050026062011719,-0.004006561279296875,0.003428485107421875,52.134998083114624
-7.69683837890625,-0.30458085327148443,-0.0040072509765625005,0.003451104736328125,52.50101900100708
-7.6763916015625,-0.30418997802734377,-0.0039887512207031255,0.0034223327636718755,52.8640398979187
-7.657470703125,-0.30378822021484375,-0.003982067871093751,0.003408721923828125,53.22606039047241
-7.63702392578125,-0.30338208618164064,-0.003960052490234375,0.003392010498046875,53.59408140182495
-7.6171875,-0.30297301025390627,-0.003964874267578126,0.00338614501953125,53.960102558135986
-7.59796142578125,-0.3025346557617188,-0.003953814697265625,0.0033971252441406252,54.32612347602844
-7.578125,-0.3021430603027344,-0.003961834716796875,0.0033844970703125,54.69314455986023
-7.5592041015625,-0.3017206665039063,-0.003950042724609375,0.0033958923339843755,55.06016540527344
-7.53662109375,-0.30132905883789063,-0.003971258544921875,0.003389892578125,55.434186935424805
-7.51739501953125,-0.300881640625,-0.0039122192382812495,0.0033990905761718754,55.79820775985718
-7.4969482421875,-0.3004780944824219,-0.003939349365234375,0.0033326171875,56.16222834587097
-7.47650146484375,-0.30009853515625,-0.00395079345703125,0.003357562255859375,56.526249170303345
-7.4560546875,-0.2996430297851563,-0.003919818115234375,0.003330560302734375,56.89127016067505
-7.43865966796875,-0.2992577880859375,-0.003897076416015625,0.0033634765625000004,57.25929141044617
-7.4176025390625,-0.2988643371582031,-0.003895220947265625,0.0033555847167968753,57.63031244277954
-7.3968505859375,-0.2984562316894532,-0.003923834228515625,0.003347406005859375,57.99833345413208
-7.3785400390625,-0.29803763427734375,-0.003905157470703125,0.00333792724609375,58.3683545589447
-7.3577880859375,-0.2976181640625,-0.003905792236328125,0.003341748046875,58.73537564277649
-7.33612060546875,-0.2971990966796875,-0.003931927490234375,0.0033160156250000004,59.09739637374878
-7.3162841796875,-0.296727685546875,-0.003925445556640625,0.0033250488281249997,59.463417291641235
-7.29705810546875,-0.29636469726562503,-0.0038942932128906253,0.0033235107421875003,59.825437784194946
-7.27691650390625,-0.2958744812011719,-0.0038853271484375,0.0033218872070312506,60.194458961486816
-7.26104736328125,-0.295454296875,-0.0038935546875,0.003292889404296875,60.57048058509827
-7.24090576171875,-0.29506934814453123,-0.003875445556640625,0.0032992431640625,60.93450140953064
-7.21710205078125,-0.2946590148925781,-0.003843426513671875,0.00329959716796875,61.29652214050293
-7.19696044921875,-0.2942445556640625,-0.0038473205566406255,0.003269512939453125,61.65954303741455
-7.1807861328125,-0.29379266357421874,-0.0038347351074218754,0.0032958557128906253,62.023563623428345
-7.15728759765625,-0.2933567993164063,-0.0038564575195312503,0.0032927490234375004,62.3895845413208
-7.137451171875,-0.2929594360351563,-0.0038117919921875003,0.003243499755859375,62.76260590553284
-7.11761474609375,-0.29252720947265626,-0.0038462707519531254,0.003259320068359375,63.12562680244446
-7.098388671875,-0.29210211791992186,-0.0038034851074218753,0.0032498168945312503,63.49064779281616
-7.07733154296875,-0.2916502685546875,-0.0038242675781250002,0.0032469177246093753,63.853668451309204
-7.056884765625,-0.29121611938476566,-0.00382470703125,0.0032488525390625004,64.22068929672241
-7.03765869140625,-0.2908081298828125,-0.00379788818359375,0.003235107421875,64.58371019363403
-7.01690673828125,-0.2903408447265625,-0.0038210510253906256,0.003250439453125,64.9527313709259
-6.9970703125,-0.28992244873046874,-0.003821307373046875,0.003214453125,65.31575202941895
-6.97723388671875,-0.2894512878417969,-0.003803668212890625,0.00321212158203125,65.68677306175232
-6.95648193359375,-0.28906011962890626,-0.003784716796875,0.00316773681640625,66.0537941455841
-6.9366455078125,-0.28861044921875,-0.003796978759765625,0.0032232910156250005,66.41781497001648
-6.91680908203125,-0.2881870361328125,-0.0037910095214843753,0.0031947998046875006,66.78183579444885
-6.8988037109375,-0.28773326416015627,-0.0037586364746093753,0.0031973571777343755,67.1448564529419
-6.8768310546875,-0.28729458618164067,-0.00376630859375,0.00319892578125,67.50887751579285
-6.8572998046875,-0.2868557556152344,-0.0037607177734375,0.003193310546875,67.87189817428589
-6.8365478515625,-0.2863974304199219,-0.0037593017578125,0.0032005126953125,68.23691916465759
-6.8170166015625,-0.28596787109375005,-0.003771270751953125,0.00318438720703125,68.60494017601013
-6.796875,-0.2854950439453125,-0.0037405639648437506,0.0031932983398437506,68.96796107292175
-6.77642822265625,-0.2849800720214844,-0.0037310607910156254,0.0031794128417968748,69.3429822921753
-6.75689697265625,-0.28460258789062504,-0.0037317138671875,0.003172039794921875,69.708003282547
-6.739501953125,-0.28409894409179687,-0.0037352355957031252,0.0031802124023437503,70.07702422142029
-6.72149658203125,-0.283671240234375,-0.0037238342285156253,0.0031665771484375004,70.44304537773132
-6.69952392578125,-0.2831406188964844,-0.0036970153808593754,0.0031332397460937505,70.80806612968445
-6.6766357421875,-0.28274619750976565,-0.0037014160156250003,0.00312784423828125,71.18108749389648
-6.65802001953125,-0.28228740844726563,-0.0036797912597656256,0.003110479736328125,71.55010867118835
-6.63970947265625,-0.28187416992187503,-0.003684149169921875,0.0031155456542968753,71.91912984848022
-6.61865234375,-0.28139273681640625,-0.003696063232421875,0.003098529052734375,72.28715085983276
-6.5966796875,-0.2809143188476563,-0.0036944396972656253,0.0031222229003906254,72.66317224502563
-6.5777587890625,-0.2804641845703125,-0.0036667175292968753,0.0030886840820312502,73.02619314193726
-6.5594482421875,-0.2800447631835938,-0.0036783508300781247,0.0031175170898437503,73.39621424674988
-6.53717041015625,-0.27959068603515624,-0.0036340576171875003,0.0030930541992187505,73.76923537254333
-6.5185546875,-0.2791623046875,-0.003656304931640625,0.003106304931640625,74.13325643539429
-6.49688720703125,-0.27868364868164064,-0.00362318115234375,0.0030726745605468755,74.49727702140808
-6.4776611328125,-0.27826182861328125,-0.00363641357421875,0.0030777099609375002,74.86929845809937
-6.461181640625,-0.27781777343749997,-0.0036353698730468755,0.003064617919921875,75.2423198223114
-6.43768310546875,-0.27733280029296875,-0.00360269775390625,0.00306800537109375,75.60834074020386
-6.4166259765625,-0.2768775146484375,-0.0036231201171875,0.0030607055664062504,75.9713613986969
-6.3970947265625,-0.276395166015625,-0.003596826171875,0.003071044921875,76.34238266944885
-6.376953125,-0.27595313720703124,-0.0036106445312500002,0.0030218261718750004,76.7134039402008
-6.35711669921875,-0.2755,-0.003602984619140625,0.00308560791015625,77.0874252319336
-6.3372802734375,-0.2749935974121094,-0.003609466552734375,0.0030560791015625003,77.45344638824463
-6.31683349609375,-0.2745348083496094,-0.0035841796875,0.00305545654296875,77.81546688079834
-6.29852294921875,-0.27408917846679687,-0.003577960205078125,0.003056646728515625,78.17948770523071
-6.27716064453125,-0.2736238220214844,-0.003551873779296875,0.0030588623046875,78.54150819778442
-6.25701904296875,-0.27318092651367193,-0.0035654052734375,0.0030667175292968755,78.91152954101562
-6.236572265625,-0.2726812805175782,-0.0035423217773437503,0.0030605957031250002,79.28355097770691
-6.2164306640625,-0.2722175231933594,-0.0035482666015625,0.003036328125,79.65157198905945
-6.19659423828125,-0.27174824218750004,-0.00354755859375,0.003032452392578125,80.03059363365173
-6.1773681640625,-0.27126868896484374,-0.003547564697265625,0.003012982177734375,80.40361499786377
-6.1578369140625,-0.27079221801757813,-0.0035334716796875,0.0029994750976562504,80.77363610267639
-6.13800048828125,-0.27032759399414064,-0.0035109741210937505,0.003024407958984375,81.13865685462952
-6.12091064453125,-0.2697945068359375,-0.0035087890625,0.003003936767578125,81.51267838478088
-6.1004638671875,-0.2693113647460938,-0.0034898193359375004,0.0030166259765625003,81.87869906425476
-6.07757568359375,-0.26879580078125004,-0.00350682373046875,0.0030172424316406254,82.24672031402588
-6.0589599609375,-0.268344775390625,-0.003519622802734375,0.003003045654296875,82.61574172973633
-6.0369873046875,-0.2677748107910156,-0.0035024353027343757,0.002990936279296875,82.98276233673096
-6.016845703125,-0.26729534912109376,-0.0034945068359375,0.003006390380859375,83.36578440666199
