#Procedure: <__main__.daedalusVoltCenterCalibrationProcedure>
#Parameters:
#	Calibration Name: test
#	Center Calibration File: ./icarus_center_calib.csv
#	Magnet Azimuthal Angle: 90 deg
#	Queued Time: 2019-06-29 07:25:44
#	Start magnet voltage: -10 V
#	Magnet voltage step: 0.1 V
#	Stop magnet voltage: 10 V
#Data:
V,Xfield,Yfield,Zfield,elapsed_time
-9.779052734375,0.32545361821289065,0.0003100658691406327,-0.00023055209960937822,6.352363348007202
-9.677734375,0.3239065356933594,0.00028065302734375797,-0.0002168069824218799,6.792388439178467
-9.58038330078125,0.3223775439941407,0.00029360468750000424,-0.00019325961914063577,7.2374138832092285
-9.47784423828125,0.3207741626464844,0.00028491328125000714,-0.0002307229980468839,7.680439233779907
-9.37774658203125,0.3192356738769532,0.00027843134765626054,-0.0002363199218750056,8.128464937210083
-9.27764892578125,0.3176241626464844,0.00029271967773437935,-0.00023168735351562775,8.572490215301514
-9.17938232421875,0.3159200061523438,0.00030107539062500244,-0.000216056250000006,9.01351547241211
-9.0777587890625,0.31422307622070317,0.00029170649414062694,-0.0002150918945312552,9.451540470123291
-8.97796630859375,0.3125786426269532,0.00026970332031250877,-0.00020545444335937774,9.889565706253052
-8.87939453125,0.3108957874023438,0.000253144482421884,-0.00016266269531250988,10.327590703964233
-8.780517578125,0.3091826282226563,0.00024813349609375396,-0.0001872232421875064,10.765615701675415
-8.67919921875,0.30754463383789066,0.00025411494140625823,-0.00018335361328125632,11.209640979766846
-8.577880859375,0.30579133183593754,0.0002272838867187557,-0.0001854593261718801,11.653666496276855
-8.4820556640625,0.3040405811035157,0.00024046137695313274,-0.00018471469726562967,12.104692220687866
-8.37982177734375,0.3022945728027344,0.0002269481933593817,-0.0001833414062500094,12.55171799659729
-8.27880859375,0.3004665393554688,0.0002496044433593775,-0.0001990823730468813,12.992743253707886
-8.1787109375,0.2987133655273438,0.0002621898925781324,-0.00017754306640625078,13.434768438339233
-8.07769775390625,0.29692543828125006,0.00023969843750000497,-0.00015604648437500535,13.875793695449829
-7.97821044921875,0.2950299487792969,0.00024202998046875257,-0.00020344028320313373,14.316818714141846
-7.87841796875,0.29321979863281256,0.00022937128906250215,-0.0001948282226562556,14.78484559059143
-7.7783203125,0.29134880253906253,0.00023881342773438008,-0.0001708536132812577,15.22787094116211
-7.67791748046875,0.2894738940917969,0.00023614619140625154,-0.00017994174804687735,15.670896053314209
-7.57781982421875,0.28757916142578127,0.00024303095703125804,-0.00012934360351563035,16.120922088623047
-7.47833251953125,0.2857128772460938,0.00023411982421875366,-0.0001467935546875035,16.562947273254395
-7.37823486328125,0.2837865161621094,0.00024369624023437564,-0.000143107031250006,17.005972623825073
-7.2784423828125,0.2818106860839844,0.00020106318359375264,-0.00012965488281250354,17.445997953414917
-7.1783447265625,0.2798214404785157,0.00021806147460937814,-0.00015090732421875475,17.88502311706543
-7.0770263671875,0.2779098499023438,0.0002223339355468812,-0.0001076639160156323,18.33404850959778
-6.97845458984375,0.27589280278320316,0.0002007885253906272,-0.00016539096679688003,18.771073579788208
-6.8780517578125,0.27393357426757814,0.00024140131835938272,-0.0001503213867187561,19.21009874343872
-6.77825927734375,0.27187305791015626,0.00025604365234375287,-0.0001672952636718808,19.65412402153015
-6.6778564453125,0.2697780933105469,0.00021804316406250773,-0.00012866611328125194,20.096149444580078
-6.5777587890625,0.26766210209960944,0.00020256464843750738,-0.00012212924804688025,20.53517436981201
-6.48162841796875,0.2655497546875001,0.00020811274414062747,-0.00013564853515625475,20.974199533462524
-6.38275146484375,0.2634654163085938,0.00020496333007813394,-0.00012885532226562801,21.411224603652954
-6.2811279296875,0.2612681812011719,0.000206293896484383,-9.524936523438304e-05,21.849249601364136
-6.1822509765625,0.2591227405273438,0.0001900219238281306,-0.00011908359375000649,22.29027485847473
-6.07940673828125,0.2569757739746094,0.00018831293945312938,-0.00013761997070313448,22.73330020904541
-5.97747802734375,0.25473573491210943,0.000205097607421878,-0.00014024448242187793,23.17832589149475
-5.8782958984375,0.2524870044433594,0.0001706371582031324,-0.00015714511718750712,23.624351263046265
-5.7781982421875,0.25017773930664067,0.00017105219726562537,-0.00012201938476563007,24.068376541137695
-5.68023681640625,0.2478983875,0.00018769648437500647,-6.98526367187563e-05,24.511402130126953
-5.5792236328125,0.24551524541015626,0.00020061762695312846,-0.00010320834960938358,24.94642686843872
-5.478515625,0.24318627202148438,0.0001430736816406264,-9.065952148438333e-05,25.380451679229736
-5.377197265625,0.24079963872070312,0.00016629145507812693,-0.0001361001953125024,25.823477029800415
-5.2838134765625,0.2383876636230469,0.00018400385742187858,-9.089145507813062e-05,26.273502826690674
-5.17669677734375,0.23594276616210938,0.00019016230468750506,-6.248569335937787e-05,26.71352791786194
-5.07965087890625,0.23346057622070313,0.0001644298828125043,-9.551791992188502e-05,27.154553174972534
-4.98077392578125,0.23090715214843752,0.00015158198242187781,-6.714877929688001e-05,27.60257863998413
-4.8779296875,0.2283787769042969,0.00014763300781250877,-5.381259765625118e-05,28.044604063034058
-4.7784423828125,0.22586761967773442,0.0001713878906250063,-0.00011060581054687935,28.478628873825073
-4.67742919921875,0.2231817676269531,0.00019235957031250167,-9.475498046875724e-05,28.924654483795166
-4.5770263671875,0.22041380498046878,0.00014889643554687887,-8.725375976562783e-05,29.368679761886597
-4.47784423828125,0.21772004887695315,0.00012555659179688122,-8.014926757813484e-05,29.809705018997192
-4.37774658203125,0.2148727466308594,0.00016029780273438266,-0.00010196933593750734,30.254730463027954
-4.27703857421875,0.21198264042968754,0.00015423701171875248,-9.454746093750382e-05,30.691755294799805
-4.17724609375,0.2091559314453125,0.0001648998535156293,-6.536655273437636e-05,31.13878107070923
-4.07684326171875,0.20614933964843749,0.0001412365234375046,-7.911166992188162e-05,31.580806255340576
-3.97735595703125,0.20308901860351564,0.0001403515136718797,-4.789218750000934e-05,32.02183151245117
-3.87725830078125,0.19996430546875,0.00011225092773437667,-4.894199218750256e-05,32.46285676956177
-3.77777099609375,0.19677573125,0.00013613398437500868,-7.997836914062917e-05,32.90788197517395
-3.677978515625,0.19348878056640625,0.0001356823242187541,-7.348422851562869e-05,33.3429069519043
-3.58184814453125,0.19015466801757816,0.00012426875000000337,-5.701083984375327e-05,33.78893256187439
-3.477783203125,0.1866998706542969,7.818720703126059e-05,-2.9148291015634875e-05,34.236958265304565
-3.37890625,0.18302958256835938,8.478510742188083e-05,-4.017124023437957e-05,34.673983335494995
-3.2794189453125,0.17927852055664062,0.00011641352539062955,-5.444125976562797e-05,35.11900854110718
-3.177490234375,0.17537568852539062,0.00013748286132812815,-5.027197265632111e-06,35.56003379821777
-3.07891845703125,0.17135152470703127,0.00011806757812500568,-3.468417968750109e-05,36.006059408187866
-2.9779052734375,0.16717936894531252,0.0001262829101562543,-2.220859375000328e-05,36.448084592819214
-2.87750244140625,0.16285552861328123,9.970209960938337e-05,-2.8848632812536468e-06,36.886109828948975
-2.7801513671875,0.15829448124999998,0.00012088129882813214,-5.5979345703130456e-05,37.330135107040405
-2.67730712890625,0.15361543461914062,0.0001224193847656277,-3.107700195312951e-05,37.77216053009033
-2.578125,0.14876796147460938,0.00010636713867187564,-1.9816015625007122e-05,38.20918536186218
-2.476806640625,0.14381801640625,8.366206054688519e-05,4.762841796866757e-06,38.65121054649353
-2.3773193359375,0.13877844731445313,0.00010764277343749962,-3.40982421875094e-05,39.092235803604126
-2.27813720703125,0.13370215947265626,7.59960449218805e-05,-2.5388525390634964e-05,39.53426122665405
-2.17864990234375,0.12853439824218751,7.559321289063448e-05,-1.4066503906257077e-05,39.97528624534607
-2.0770263671875,0.12331515385742187,0.00010356562500000305,-4.0854833984381445e-05,40.41431140899658
-1.98028564453125,0.11814416386718751,6.374628906250651e-05,-4.974765625000849e-05,40.85133647918701
-1.878662109375,0.11286339604492188,8.454707031250314e-05,-7.544345703125455e-05,41.298362255096436
-1.7779541015625,0.10759070317382813,7.743037109375628e-05,-8.876132812500603e-05,41.7453875541687
-1.67694091796875,0.10233129765624999,7.645380859375162e-05,-5.0895117187504946e-05,42.18341279029846
-1.5777587890625,0.09699349248046876,6.158564453125764e-05,-5.959873046875591e-05,42.621437788009644
-1.478271484375,0.09167655522460938,9.193232421875197e-05,-8.29568847656309e-05,43.06246304512024
-1.37847900390625,0.08633884160156252,0.00010380976562500421,-6.853427734375417e-05,43.509488344192505
-1.27685546875,0.0809576099121094,4.4611767578132955e-05,-6.436557617187783e-05,43.94851350784302
-1.1767578125,0.07562344243164063,4.062617187500228e-05,-3.5758398437509e-05,44.39253902435303
-1.0791015625,0.07030707890625001,4.1938427734380945e-05,-2.5925634765631977e-05,44.83056402206421
-0.97869873046875,0.06497026860351562,3.9838818359380634e-05,-2.8000830078131478e-05,45.278589725494385
-0.87799072265625,0.05957902714843751,3.343623046875299e-05,-4.0049169921875516e-05,45.72561550140381
-0.77728271484375,0.054252904101562506,6.881220703125468e-05,-5.230502929687991e-05,46.16464066505432
-0.67657470703125,0.04889594609375001,8.239863281250814e-05,-4.086704101562838e-05,46.61166596412659
-0.577392578125,0.043585521289062505,7.292597656250593e-05,-4.4510839843754646e-05,47.047691106796265
-0.4803466796875,0.038195421191406266,8.3202636718821e-06,-5.944614257813452e-05,47.483715772628784
-0.3778076171875,0.03281454350585938,-2.1289550781178335e-06,-3.5087011718760996e-05,47.92374086380005
-0.27679443359375,0.02743143803710938,4.322460937504491e-06,-7.747592773438283e-05,48.371766567230225
-0.17822265625,0.02210662114257813,2.2840527343755135e-05,-8.11380371093795e-05,48.82079243659973
-0.0811767578125,0.016802635546875007,9.833935546876837e-06,-5.2659033203131256e-05,49.259817600250244
0.023193359375,0.011388414355468758,8.704785156257722e-06,-1.2803076171880035e-05,49.703842878341675
0.12298583984375,0.00604694707031251,9.315136718757167e-06,-4.3528173828133454e-05,50.147868156433105
0.220947265625,0.0006099414550781307,-2.1428271484373596e-05,-2.197666015625599e-05,50.5938937664032
0.3179931640625,-0.004825117138671869,-2.6237841796866723e-05,-1.8692968750004535e-05,51.041919469833374
0.42266845703125,-0.010206654003906246,1.065791015625317e-05,-5.132846679688219e-05,51.50394582748413
0.5218505859375,-0.015598646191406242,3.2233837890631445e-05,-2.750034179688221e-05,51.949971199035645
0.62347412109375,-0.020956989697265622,1.5064648437507211e-05,2.6509667968743766e-05,52.39899706840515
0.7220458984375,-0.026308112744140622,1.1732128906254136e-05,-1.6843603515628858e-05,52.85002303123474
0.82305908203125,-0.03170908930664062,-1.5306445312494865e-05,-4.325292968759831e-06,53.310049057006836
0.92315673828125,-0.03706799433593749,-4.5695849609367345e-05,-9.988769531302233e-07,53.75407433509827
1.02294921875,-0.04240305903320312,-2.4693652343747707e-05,2.93789062499189e-06,54.205100297927856
1.123046875,-0.047779365185546874,-1.3048144531242756e-05,3.5042382812496e-05,54.6521258354187
1.22344970703125,-0.053143073681640625,6.481445312539469e-07,3.0818749999994566e-05,55.10415196418762
1.32354736328125,-0.0584719494140625,5.775097656257611e-06,3.459682617187182e-05,55.54817724227905
1.42303466796875,-0.06385255244140625,-5.275761718749605e-05,7.381249999993678e-06,55.98820233345032
1.52099609375,-0.06919656489257812,-3.068120117186851e-05,5.187587890624623e-05,56.43322777748108
1.62384033203125,-0.07459555170898438,-2.9942675781241546e-05,1.7952539062497663e-05,56.87625312805176
1.72332763671875,-0.07996521723632813,-8.374516601562104e-05,3.615932617186818e-05,57.325278759002686
1.81884765625,-0.0852776134765625,-6.835209960937005e-05,6.778774414061689e-05,57.77030420303345
1.91864013671875,-0.09062458002929688,-5.4045458984373906e-05,4.015712890624579e-05,58.220329999923706
2.02362060546875,-0.09589013178710938,-2.8929492187496075e-05,3.4920312499991946e-05,58.662355184555054
2.1234130859375,-0.10122992060546876,-5.915410156249329e-05,2.0979882812494077e-05,59.10638070106506
2.22198486328125,-0.10651512568359375,-7.386967773437281e-05,4.8079492187491635e-05,59.557406425476074
2.3223876953125,-0.1117443615234375,-0.0001211841308593753,4.292202148436369e-05,60.01043224334717
2.423095703125,-0.11703224604492188,-9.173466796874585e-05,3.441372070311921e-05,60.45645785331726
2.523193359375,-0.12229534418945312,-9.928471679686995e-05,1.1415673828119033e-05,60.91448402404785
2.623291015625,-0.12747161982421876,-0.00011937749023437083,1.4992333984373274e-05,61.38251090049744
2.72308349609375,-0.13266461298828125,-0.0001256641113281179,2.284814453121231e-06,61.86253833770752
2.82318115234375,-0.13780667231445312,-0.00015276982421874585,5.513574218740658e-06,62.343565940856934
2.92022705078125,-0.14275535395507813,-0.0001446033203124919,-1.01419433593819e-05,62.80659222602844
3.0230712890625,-0.14768324091796875,-0.00013151127929687118,4.1280761718665016e-06,63.25061774253845
3.12255859375,-0.1525897045410156,-0.00014108769531249316,6.05068359374461e-06,63.70764398574829
3.2244873046875,-0.1572936779296875,-0.00013189580078123986,-4.485874023438252e-05,64.17167019844055
3.3233642578125,-0.161883399609375,-0.00016660649414062395,-2.1628759765628114e-05,64.63769698143005
3.4222412109375,-0.1663126659667969,-0.00017206914062499468,-2.2770117187508043e-05,65.08572268486023
3.52294921875,-0.17057521479492188,-0.00014057499999999695,2.483730468749029e-05,65.53874850273132
3.621826171875,-0.174600391796875,-0.00017429692382811557,1.3594628906245243e-05,65.98377394676208
3.72344970703125,-0.1785006359375,-0.00017394902343749463,-9.983251953130101e-06,66.45380091667175
3.8226318359375,-0.1823026562011719,-0.0001712329589843714,5.464746093745976e-06,66.90482664108276
3.92333984375,-0.18594512446289063,-0.00013112675781249555,-1.7368505859378935e-05,67.3638527393341
4.02313232421875,-0.18944332392578125,-0.0001641772949218731,1.1781884765617312e-05,67.8198790550232
4.1241455078125,-0.19285553095703126,-0.0001718249999999935,1.8752099609373185e-05,68.26690459251404
4.2236328125,-0.19616952021484377,-0.00019233891601561776,4.411831054686871e-05,68.71593046188354
4.32342529296875,-0.19939187128906252,-0.0001739795410156189,1.4241601562492434e-05,69.1529552936554
4.42352294921875,-0.20256474116210937,-0.00019406621093749632,8.345605468744466e-06,69.59998083114624
4.52392578125,-0.20555728266601564,-0.0001142261230468733,6.667690429686818e-05,70.05400681495667
4.62432861328125,-0.20856079829101562,-0.00017950322265624513,1.8550683593743234e-05,70.506032705307
4.72412109375,-0.21152396357421877,-0.00019452397460936743,3.86983886718692e-05,70.95105814933777
4.82391357421875,-0.21445520747070315,-0.00017832524414061746,3.615932617186818e-05,71.39508366584778
4.921875,-0.2172145458496094,-0.000162254687499995,5.334072265624629e-05,71.82510805130005
5.023193359375,-0.21997831538085938,-0.00018964726562499534,6.845913085936489e-05,72.27013349533081
5.12237548828125,-0.22266147578125,-0.00014001958007811566,4.4161035156246864e-05,72.72215938568115
5.22216796875,-0.22532933466796876,-0.000164256640624999,4.3874169921874484e-05,73.17718529701233
5.32379150390625,-0.2279725109375,-0.00019324223632812,7.637539062499421e-05,73.62021064758301
5.4205322265625,-0.2305561962402344,-0.00019498784179686895,2.3525048828118567e-05,74.08023715019226
5.52337646484375,-0.23313963129882814,-0.00020233037109373964,4.427700195312051e-05,74.52926278114319
5.6231689453125,-0.2356233349121094,-0.0002169055664062447,8.109951171874491e-05,74.97928857803345
5.72235107421875,-0.23811270869140624,-0.00020203129882812032,4.284267578124473e-05,75.42631411552429
5.823974609375,-0.2404586681640625,-0.00020924565429687042,7.674770507811596e-05,75.8703396320343
5.9234619140625,-0.24284052851562501,-0.00016403081054686824,5.282192382811968e-05,76.31936526298523
6.024169921875,-0.24523336909179688,-0.00016621586914061792,5.609951171874766e-05,76.76739072799683
6.1224365234375,-0.2475540783203125,-0.0001871387207031186,5.948085937499542e-05,77.22741723060608
6.22467041015625,-0.24983249018554687,-0.00021876103515624384,8.183193359374147e-05,77.68244314193726
6.3238525390625,-0.25211748164062503,-0.00019644658203124554,8.115444335937e-05,78.13246870040894
6.422119140625,-0.25435947382812496,-0.00021657597656249417,6.179409179687262e-05,78.57949447631836
6.5228271484375,-0.25657409174804685,-0.00019387700195312024,0.00010685634765624646,79.02852034568787
6.61895751953125,-0.25878116572265625,-0.0002046069824218691,9.527187499999007e-05,79.48054599761963
6.72332763671875,-0.26092210200195315,-0.00016600224609374797,0.00011072597656249655,79.92657160758972
6.81976318359375,-0.26309804194335934,-0.00016656987304686927,9.120693359374044e-05,80.36859679222107
6.9244384765625,-0.2652046703613281,-0.0001791492187499938,5.811367187499167e-05,80.80662178993225
7.020263671875,-0.26729990961914063,-0.00019458500976562293,9.577846679686974e-05,81.25864791870117
7.1234130859375,-0.26941610224609375,-0.00019020878906249317,7.686367187499654e-05,81.71367383003235
7.22442626953125,-0.271447852734375,-0.00018040043945311696,8.020839843749655e-05,82.1556990146637
7.3248291015625,-0.27348626826171873,-0.00019410283203124407,0.00011271572265624669,82.60272455215454
7.42431640625,-0.2754835888183594,-0.00019128300781249413,0.0001448385253906212,83.0477499961853
7.52288818359375,-0.27747906000976563,-0.00023253666992187338,0.00011723232421874397,83.49077534675598
7.6239013671875,-0.2794520641601563,-0.00019492070312499,0.0001273458496093699,83.93280053138733
7.7239990234375,-0.28132112543945315,-0.00022000004882812008,0.00012897548828124522,84.3808262348175
7.8240966796875,-0.28327467158203123,-0.0001976550781249975,0.0001637716308593648,84.82685160636902
7.92388916015625,-0.28520406611328125,-0.00022262456054687046,0.00016275844726561933,85.27987766265869
8.01910400390625,-0.287178565625,-0.00022634770507812263,0.00017251796874999392,85.72390294075012
8.12408447265625,-0.28900550043945317,-0.00024292485351562476,9.154873046874484e-05,86.16592812538147
8.22357177734375,-0.2908806896484375,-0.0002079761230468699,0.0001266500488281211,86.60995388031006
8.32183837890625,-0.29271480219726564,-0.00021675908203124677,0.00012930507812499575,87.05697917938232
8.42254638671875,-0.2945713634765625,-0.00027574345703124115,0.00015428066406249913,87.50000476837158
8.52386474609375,-0.29637225458984373,-0.0002656360351562456,0.00017287807617186873,87.95303058624268
8.62335205078125,-0.298191602734375,-0.0002607410156249962,0.00016109218749999626,88.39705610275269
8.72406005859375,-0.29999426386718747,-0.00027798344726562285,0.0001554952636718676,88.83808135986328
8.82415771484375,-0.3016941845214844,-0.0002513843261718676,0.0001510885253906205,89.28710675239563
8.9239501953125,-0.3035212658203125,-0.00025600468749999855,0.00017087612304687166,89.73013234138489
9.0228271484375,-0.30529090693359373,-0.0002481433593749943,0.0001742330566406186,90.17415761947632
9.12353515625,-0.30699431269531247,-0.00024073369140624468,0.00016294155273437194,90.62818360328674
9.2242431640625,-0.3087217541015625,-0.00022624394531249592,0.00020086269531249118,91.06920886039734
9.3243408203125,-0.31038226435546873,-0.0002334094726562444,0.0002061544433593701,91.50323367118835
9.42474365234375,-0.3120930919921875,-0.00026325566406248946,0.00020414638671874957,91.94225883483887
9.52423095703125,-0.3137374279296875,-0.00024918095703124754,0.0001819173828124937,92.38928437232971
9.6209716796875,-0.3154635265625,-0.0002503101074218736,0.00017814541015624685,92.82330918312073
