#Procedure: <__main__.daedalusRadialPoloarCalibrationProcedure>
#Parameters:
#	Calibration Name: probe_wire_side_1.55mm_shim
#	Center Calibration File: ./proj_field_center_calib.csv
#	Azimuthal Angle: 90 deg
#	Magnet Voltage: 7 V
#	Queued Time: 2019-02-05 12:04:21
#	Start Y position: -5 mm
#	Y position step: 0.02 mm
#	Stop Y position: 5 mm
#Data:
R,Xfield,Yfield,Zfield,elapsed_time
-5.0,0.16058783569335938,-0.006284393310546876,0.1486621887207031,5.1000072956085205
-4.98,0.16093539428710937,-0.00630611572265625,0.14843629760742189,6.030008316040039
-4.960000000000001,0.16139544677734374,-0.0063934997558593755,0.148147802734375,7.001009941101074
-4.940000000000001,0.16195686645507812,-0.006364947509765626,0.1477472839355469,7.941011190414429
-4.920000000000002,0.162427392578125,-0.006417718505859375,0.14743308105468753,8.871012687683105
-4.900000000000002,0.16293802490234377,-0.006472491455078125,0.14706646118164063,9.821013927459717
-4.880000000000003,0.16343839721679687,-0.006520562744140625,0.14670885009765625,10.770037651062012
-4.860000000000003,0.163972998046875,-0.0065443603515625,0.14634285888671875,11.742093086242676
-4.840000000000003,0.16444257202148438,-0.006578808593750001,0.1459786193847656,12.717149019241333
-4.820000000000004,0.16500377197265625,-0.00667186279296875,0.145610595703125,13.696204900741577
-4.800000000000004,0.16549310302734377,-0.006695001220703126,0.14522379760742188,14.68126106262207
-4.780000000000005,0.16593859252929688,-0.006770831298828126,0.14488369750976562,15.654316902160645
-4.760000000000005,0.16646842041015628,-0.0067503173828125,0.14453098754882812,16.63537311553955
-4.7400000000000055,0.16698471679687502,-0.006844433593750001,0.14406064453125,17.613428831100464
-4.720000000000006,0.16751512451171877,-0.00691728515625,0.14371818237304687,18.593485116958618
-4.700000000000006,0.16798056640625003,-0.006960034179687501,0.14333883056640626,19.573540925979614
-4.680000000000007,0.16849015502929687,-0.006894342041015625,0.1429635437011719,20.552597045898438
-4.660000000000007,0.16900667114257814,-0.00705750732421875,0.14262780151367188,21.53065299987793
-4.640000000000008,0.16955718383789065,-0.0069883056640625,0.14217236328125002,22.510709047317505
-4.620000000000008,0.16996256103515628,-0.007040484619140625,0.14180695800781248,23.492765188217163
-4.6000000000000085,0.17057210083007812,-0.00704873046875,0.14142474975585936,24.468821048736572
-4.580000000000009,0.17105510864257814,-0.007124505615234375,0.14101207275390626,25.447876930236816
-4.560000000000009,0.17144547119140627,-0.007189416503906251,0.14062232055664065,26.42693305015564
-4.54000000000001,0.17199865112304688,-0.007207830810546875,0.1402041198730469,27.404989004135132
-4.52000000000001,0.17250518798828127,-0.0072314453125,0.13977142333984377,28.384045124053955
-4.500000000000011,0.1729667663574219,-0.007224456787109375,0.13937264404296876,29.30809783935547
-4.480000000000011,0.17351801757812502,-0.0072888305664062505,0.13890115356445312,30.28515362739563
-4.4600000000000115,0.1739209899902344,-0.007345159912109375,0.13859439086914063,31.20820641517639
-4.440000000000012,0.17448250732421877,-0.0073796875,0.13816119995117188,32.18526244163513
-4.420000000000012,0.174941748046875,-0.00742752685546875,0.1376911376953125,33.109315156936646
-4.400000000000013,0.1754083923339844,-0.007427978515625,0.1373261474609375,34.08837127685547
-4.380000000000013,0.17593984985351563,-0.00748509521484375,0.1368456481933594,35.06542706489563
-4.360000000000014,0.17591106567382814,-0.007416052246093751,0.1368463562011719,35.758466720581055
-4.340000000000014,0.1768549072265625,-0.0075966064453125,0.1360679260253906,36.85352945327759
-4.3200000000000145,0.17736499633789063,-0.0076088134765625,0.13562030639648437,37.77558207511902
-4.300000000000015,0.1777719482421875,-0.007643609619140625,0.13512596435546875,38.69763493537903
-4.280000000000015,0.17830241088867188,-0.00775018310546875,0.13472980957031253,39.6776909828186
-4.260000000000016,0.17871082153320314,-0.00775364990234375,0.1342563415527344,40.655746936798096
-4.240000000000016,0.17923771972656252,-0.007839666748046875,0.13383922119140626,41.63480305671692
-4.220000000000017,0.1792195251464844,-0.00777569580078125,0.13387249145507815,46.459078788757324
-4.200000000000017,0.18014130249023438,-0.007925769042968751,0.1329749755859375,47.55014133453369
-4.1800000000000175,0.18063546752929688,-0.007922332763671875,0.13254990844726564,48.52719712257385
-4.160000000000018,0.18107566528320315,-0.007949182128906251,0.13210184326171875,49.44825005531311
-4.140000000000018,0.18159738769531253,-0.008028869628906251,0.1315851501464844,50.372302770614624
-4.120000000000019,0.18204082641601563,-0.007991247558593751,0.13111790771484375,55.20957946777344
-4.100000000000019,0.18246514282226564,-0.0080712158203125,0.13060570068359376,56.191635608673096
-4.08000000000002,0.18296530761718752,-0.008082415771484375,0.13022428588867188,61.02691197395325
-4.06000000000002,0.18343952636718752,-0.00814429931640625,0.12976231079101563,62.0069682598114
-4.0400000000000205,0.18385227661132814,-0.008211798095703125,0.12929252929687501,62.98702430725098
-4.020000000000021,0.1843018981933594,-0.008259698486328125,0.12879815063476563,63.91107702255249
-4.000000000000021,0.1848236022949219,-0.008304864501953125,0.12838025512695314,64.89013314247131
-3.9800000000000217,0.18521032104492188,-0.008296997070312501,0.12786600341796875,65.8681890964508
-3.960000000000022,0.185634130859375,-0.008349127197265625,0.12740288085937498,66.84924507141113
-3.9400000000000226,0.18609429321289062,-0.008393157958984375,0.126973681640625,67.82730102539062
-3.920000000000023,0.18655710449218751,-0.008394647216796875,0.126496435546875,68.80635714530945
-3.9000000000000234,0.1869849853515625,-0.0084328857421875,0.125988720703125,73.62863302230835
-3.880000000000024,0.1874510925292969,-0.008515020751953126,0.12549097290039063,74.60568857192993
-3.8600000000000243,0.18785642700195315,-0.00852667236328125,0.12496935424804688,79.44696569442749
-3.8400000000000247,0.18829785766601564,-0.008568414306640624,0.12453856201171876,80.42102122306824
-3.820000000000025,0.18874459838867189,-0.00861051025390625,0.12402693481445314,81.40507769584656
-3.8000000000000256,0.1891517761230469,-0.008659857177734374,0.12358788452148438,82.38013339042664
-3.780000000000026,0.18915377197265626,-0.008702398681640624,0.12354542236328125,83.07317304611206
-3.7600000000000264,0.19002406005859376,-0.008744677734375001,0.12253719482421875,84.17123603820801
-3.740000000000027,0.19043502807617188,-0.008752789306640625,0.12207445068359375,85.14529156684875
-3.7200000000000273,0.1903991638183594,-0.008751690673828125,0.12204639892578124,85.83733105659485
-3.7000000000000277,0.19134805908203126,-0.008846258544921876,0.1210072998046875,86.93239378929138
-3.680000000000028,0.19169749145507814,-0.008936138916015626,0.12054259643554688,87.91144967079163
-3.6600000000000286,0.19216361083984376,-0.008885107421875002,0.12010184936523438,88.8915057182312
-3.640000000000029,0.19252485961914065,-0.008977423095703126,0.11952343139648439,89.86856174468994
-3.6200000000000294,0.19296990356445312,-0.00901976318359375,0.119032275390625,90.84761762619019
-3.60000000000003,0.1934197448730469,-0.009158740234375,0.11852761840820313,91.77067041397095
-3.5800000000000303,0.1938,-0.009127545166015626,0.11798282470703125,92.74872636795044
-3.5600000000000307,0.19420290527343753,-0.009149908447265626,0.11752627563476564,93.72978258132935
-3.540000000000031,0.19461229858398438,-0.00913155517578125,0.11694674072265626,94.73083996772766
-3.5200000000000315,0.195010400390625,-0.009284979248046875,0.11642871704101564,95.70589542388916
-3.500000000000032,0.1953989990234375,-0.009275775146484375,0.11597974243164062,96.62894821166992
-3.4800000000000324,0.19583201904296876,-0.00933912353515625,0.11543964233398439,97.60800433158875
-3.460000000000033,0.19618703613281252,-0.00933092041015625,0.11489183349609376,98.5850601196289
-3.4400000000000333,0.19658470458984376,-0.009323614501953124,0.11437459106445313,99.5631160736084
-3.4200000000000337,0.19691932983398439,-0.009345635986328127,0.11379855346679689,100.48716902732849
-3.400000000000034,0.19735745849609376,-0.009422210693359375,0.11328091430664063,101.46522498130798
-3.3800000000000345,0.1977222900390625,-0.00941927490234375,0.11276502685546874,102.44528102874756
-3.360000000000035,0.1981146484375,-0.009499005126953126,0.11223649902343752,103.42233681678772
-3.3400000000000354,0.19851212768554688,-0.009523657226562501,0.11178120727539063,104.34638977050781
-3.320000000000036,0.19885742797851563,-0.009571264648437501,0.11123650512695314,105.3244457244873
-3.3000000000000362,0.19926199340820314,-0.009562371826171876,0.11065169067382813,106.30350160598755
-3.2800000000000367,0.19926571044921876,-0.009630859375000002,0.11067840576171875,106.99354124069214
-3.260000000000037,0.19996612548828127,-0.00962652587890625,0.10959352416992188,108.09060382843018
-3.2400000000000375,0.20038833007812504,-0.009728265380859375,0.10898245239257814,109.069659948349
-3.220000000000038,0.20072579345703123,-0.009762213134765626,0.10849901733398437,110.04771590232849
-3.2000000000000384,0.2010885009765625,-0.009778723144531251,0.10794899902343752,110.97076869010925
-3.180000000000039,0.20145715942382814,-0.009804565429687502,0.10741722412109377,111.94882464408875
-3.160000000000039,0.20187794189453126,-0.009804046630859375,0.10683769531250001,112.92988061904907
-3.1400000000000396,0.20218984985351565,-0.009880828857421876,0.10631393432617187,113.90693664550781
-3.12000000000004,0.20250219726562502,-0.009882818603515626,0.10572053833007813,114.90099334716797
-3.1000000000000405,0.2028581298828125,-0.009953045654296876,0.10515863647460938,115.82704639434814
-3.080000000000041,0.20322974243164063,-0.01003865966796875,0.10459671020507813,116.80810260772705
-3.0600000000000414,0.20354832763671876,-0.010018817138671875,0.10411160278320314,121.64437913894653
-3.040000000000042,0.20398668823242186,-0.010009808349609376,0.10353082275390627,122.62243509292603
-3.020000000000042,0.20435280151367188,-0.010055438232421875,0.10296134033203126,123.54548788070679
-3.0000000000000426,0.20463769531249998,-0.010118048095703125,0.10244254150390626,124.52354383468628
-2.980000000000043,0.20499155883789066,-0.010123553466796876,0.10189223632812501,125.50559997558594
-2.9600000000000435,0.20538829345703125,-0.01021973876953125,0.10133721923828126,126.4826557636261
-2.940000000000044,0.20567293701171874,-0.010291613769531251,0.1007574462890625,127.40670871734619
-2.9200000000000443,0.2059905517578125,-0.0103364501953125,0.10021513671875,128.38376450538635
-2.9000000000000448,0.20632351684570313,-0.0103219482421875,0.09964081420898438,129.36482071876526
-2.880000000000045,0.20664876098632812,-0.010260888671875001,0.09904736328125001,130.2948739528656
-2.8600000000000456,0.20698059692382814,-0.010450366210937501,0.09849734497070313,131.26492929458618
-2.840000000000046,0.20733062133789062,-0.010383990478515626,0.09785966796875001,132.243985414505
-2.8200000000000465,0.20729957275390626,-0.010433251953125,0.09794310913085938,137.08226203918457
-2.800000000000047,0.20799884033203125,-0.010519097900390626,0.09679008178710938,138.17532467842102
-2.7800000000000473,0.2082884948730469,-0.010572442626953126,0.09615614013671875,139.09937739372253
-2.7600000000000477,0.20860402832031252,-0.010621832275390625,0.09565060424804689,140.0794336795807
-2.740000000000048,0.2089095947265625,-0.010624591064453126,0.09503755493164062,141.05548930168152
-2.7200000000000486,0.20923892211914064,-0.010687890625000002,0.09443244018554688,142.03754568099976
-2.700000000000049,0.2095110046386719,-0.010762969970703126,0.09389495849609375,143.01560139656067
-2.6800000000000495,0.20988579101562502,-0.01075543212890625,0.09333803710937501,143.9946575164795
-2.66000000000005,0.21013767700195315,-0.010784234619140624,0.09274129028320313,144.97271347045898
-2.6400000000000503,0.21044901123046877,-0.010837432861328126,0.09212870483398439,145.90376663208008
-2.6200000000000507,0.21073115234375003,-0.0108565185546875,0.09157553100585938,146.87782263755798
-2.600000000000051,0.2110786804199219,-0.0108930419921875,0.0909510498046875,147.8558783531189
-2.5800000000000516,0.21136141357421875,-0.010912316894531251,0.090416162109375,148.8369345664978
-2.560000000000052,0.2117408935546875,-0.01094417724609375,0.08979226684570313,149.81399011611938
-2.5400000000000524,0.21193310546875002,-0.010996520996093752,0.08925450439453125,150.7930464744568
-2.520000000000053,0.21193310546875002,-0.01095853271484375,0.08923099365234376,151.43008279800415
-2.5000000000000533,0.21249755859375,-0.011061883544921875,0.08807964477539063,152.52314519882202
-2.4800000000000537,0.21284882202148436,-0.0110318115234375,0.08752080688476563,153.50320148468018
-2.460000000000054,0.21306138305664063,-0.011068328857421875,0.08688613281250002,154.48425769805908
-2.4400000000000546,0.21337004394531253,-0.011072998046875001,0.08632003784179687,155.45931315422058
-2.420000000000055,0.21367202758789064,-0.01112109375,0.085694775390625,156.44036960601807
-2.4000000000000554,0.213915576171875,-0.0111554443359375,0.0851316650390625,157.41842532157898
-2.380000000000056,0.21416126708984376,-0.01128658447265625,0.0845656005859375,162.25670194625854
-2.3600000000000563,0.21441456909179687,-0.01124404296875,0.08393002319335938,163.23475790023804
-2.3400000000000567,0.2146416198730469,-0.011276287841796876,0.08337669677734376,164.21681427955627
-2.320000000000057,0.21493089599609375,-0.011308001708984376,0.08279541625976562,165.19386982917786
-2.3000000000000576,0.2152072692871094,-0.011337994384765626,0.08216683349609376,166.17492628097534
-2.280000000000058,0.21552963256835939,-0.011319732666015625,0.081567333984375,167.15098190307617
-2.2600000000000584,0.21575829467773439,-0.011381903076171875,0.08096016235351564,168.13403844833374
-2.240000000000059,0.2160240417480469,-0.01142357177734375,0.0803892578125,169.110093832016
-2.2200000000000593,0.21632477416992188,-0.01145460205078125,0.07980948486328127,170.03614711761475
-2.2000000000000597,0.2165546875,-0.011548175048828126,0.07914800415039064,171.0102026462555
-2.18000000000006,0.21670781250000004,-0.011548675537109376,0.07862069091796875,171.9342555999756
-2.1600000000000605,0.21696840820312502,-0.01160145263671875,0.07800082397460939,172.91231155395508
-2.140000000000061,0.2172791931152344,-0.011598834228515625,0.0773816650390625,173.8933675289154
-2.1200000000000614,0.21751353149414066,-0.01157431640625,0.0767511962890625,174.86942338943481
-2.100000000000062,0.2177738525390625,-0.011634600830078126,0.07622963256835938,175.79447627067566
-2.0800000000000622,0.21803948974609375,-0.01167945556640625,0.07556801147460938,176.77153205871582
-2.0600000000000627,0.21814851684570313,-0.011713031005859376,0.07502008056640626,177.75058817863464
-2.040000000000063,0.21838428344726563,-0.01178150634765625,0.07436166381835939,178.73164415359497
-2.0200000000000635,0.21869384155273439,-0.01176297607421875,0.07373864135742188,179.7087001800537
-2.000000000000064,0.2188882080078125,-0.011775677490234376,0.073179443359375,180.68775606155396
-1.9800000000000644,0.219181982421875,-0.01184627685546875,0.07250599975585938,181.66681218147278
-1.9600000000000648,0.2193565856933594,-0.011921051025390626,0.071930517578125,182.64686822891235
-1.9400000000000652,0.21957832641601566,-0.011853424072265625,0.07136514282226562,183.62792420387268
-1.9200000000000657,0.21988574829101562,-0.0118698974609375,0.0706883056640625,184.60598015785217
-1.900000000000066,0.22003223876953126,-0.01201861572265625,0.07008295288085938,185.58603620529175
-1.8800000000000665,0.22026859741210938,-0.011995697021484376,0.0694822998046875,186.56409215927124
-1.860000000000067,0.22041350708007812,-0.011939599609375,0.06894164428710937,187.54314827919006
-1.8400000000000674,0.22068294067382813,-0.01202174072265625,0.06832366333007812,188.52320432662964
-1.8200000000000678,0.2208373962402344,-0.012027947998046877,0.06769230346679687,189.5032606124878
-1.8000000000000682,0.22107445068359377,-0.012087652587890626,0.0670966064453125,190.48031616210938
-1.7800000000000686,0.22135453491210938,-0.012121759033203125,0.06642294311523438,195.29959201812744
-1.760000000000069,0.22155138549804687,-0.012112225341796876,0.06588205566406251,196.27764797210693
-1.7400000000000695,0.2217310791015625,-0.012184088134765625,0.06527557983398438,197.2007007598877
-1.72000000000007,0.22189129638671876,-0.0122762939453125,0.06460780029296875,202.03897738456726
-1.7000000000000703,0.22210022583007813,-0.012253814697265625,0.06407245483398437,202.96503043174744
-1.6800000000000708,0.22233623657226564,-0.0122875732421875,0.06343374633789063,203.9400863647461
-1.6600000000000712,0.22249377441406248,-0.012339031982421875,0.06275241088867188,204.92414236068726
-1.6400000000000716,0.22270968627929688,-0.012343896484375,0.06215424194335938,205.8991982936859
-1.620000000000072,0.22288873291015623,-0.0123689208984375,0.06157080688476563,206.8792543411255
-1.6000000000000725,0.22313243408203123,-0.01240294189453125,0.06095082397460938,207.85831022262573
-1.580000000000073,0.22328034057617185,-0.012388299560546876,0.06030054321289063,208.83736634254456
-1.5600000000000733,0.22341231689453128,-0.0124791015625,0.059674053955078125,209.81542229652405
-1.5400000000000738,0.22362377319335938,-0.012520983886718752,0.05910288696289062,210.7944781780243
-1.5200000000000742,0.22375359497070313,-0.012491387939453126,0.05846912231445313,211.77453422546387
-1.5000000000000746,0.22399030761718752,-0.012531854248046877,0.05785829467773438,212.75759053230286
-1.480000000000075,0.22418193359375002,-0.012613586425781252,0.057299279785156254,213.73064637184143
-1.4600000000000755,0.22435371704101562,-0.0127149169921875,0.0566624267578125,214.6556990146637
-1.4400000000000759,0.22452856445312502,-0.012699853515625002,0.05603834838867188,215.6317548751831
-1.4200000000000763,0.22468739013671876,-0.012649053955078125,0.05545072631835938,216.61181116104126
-1.4000000000000767,0.22485097656250003,-0.012656298828125002,0.05480967407226563,217.58986687660217
-1.3800000000000772,0.22497625732421878,-0.0126876220703125,0.054247827148437504,218.51391983032227
-1.3600000000000776,0.2251379333496094,-0.012743286132812502,0.05365780029296875,219.49197578430176
-1.340000000000078,0.22527316894531252,-0.012746978759765626,0.052983605957031256,220.471031665802
-1.3200000000000784,0.22531987304687504,-0.012763525390625,0.0530310302734375,225.28930711746216
-1.3000000000000789,0.22563699951171878,-0.012854638671875,0.05173778686523437,226.39137029647827
-1.2800000000000793,0.22574521484375,-0.012861859130859375,0.051131713867187505,227.368426322937
-1.2600000000000797,0.2259120849609375,-0.012862017822265627,0.050547460937500004,228.34748220443726
-1.2400000000000801,0.2260708923339844,-0.012923992919921877,0.04981156616210938,229.32553815841675
-1.2200000000000806,0.22608181762695315,-0.012898992919921876,0.04989390869140625,234.14481401443481
-1.200000000000081,0.22632904052734376,-0.012902673339843752,0.04860458374023438,235.23887658119202
-1.1800000000000814,0.22646876831054685,-0.012956329345703125,0.04808807373046875,236.16192936897278
-1.1600000000000819,0.22668359985351563,-0.01299945068359375,0.047393353271484376,237.14098525047302
-1.1400000000000823,0.2268218994140625,-0.013044958496093752,0.04679331665039063,238.11804103851318
-1.1200000000000827,0.2269772094726563,-0.01305709228515625,0.04617081909179688,239.04209399223328
-1.1000000000000831,0.22699681396484378,-0.013070635986328126,0.04558426513671875,240.01915001869202
-1.0800000000000836,0.2271976501464844,-0.013099530029296876,0.04498431396484375,241.00020599365234
